# dimensionless total lensed [l(l+1)/2pi] C_l's
# for l=2 to 2500, i.e. number of multipoles equal to 2499
#
# -> if you prefer output in CAMB/HealPix/LensPix units/order, set 'format' to 'camb' in input file
# -> if you don't want to see such a header, set 'headers' to 'no' in input file
# -> for CMB lensing (phi), these are C_l^phi-phi for the lensing potential.
#    Remember the conversion factors:
#    C_l^dd (deflection) = l(l+1) C_l^phi-phi
#    C_l^gg (shear/convergence) = 1/4 (l(l+1))^2 C_l^phi-phi
#
# 1:l     2:TT                     3:EE                     4:TE                     5:BB                     6:phiphi                 7:TPhi                   8:Ephi               
    2       1.380106926586e-10       4.197009065711e-15       3.551087258490e-13       2.324731464606e-19       8.330107732698e-09       4.522318523930e-10      -1.850087178552e-12 
    3       1.306239529569e-10       5.388802426784e-15       3.983238423689e-13       4.650341718121e-19       5.119239570611e-09       3.201520889174e-10      -1.403835894627e-12 
    4       1.236351994250e-10       4.672638781224e-15       3.723931343273e-13       7.752507980375e-19       3.545001276082e-09       2.420977042245e-10      -9.207375286521e-13 
    5       1.183933726512e-10       3.125689257236e-15       3.171642112650e-13       1.163236217331e-18       2.637417945127e-09       1.909777702209e-10      -5.135243262711e-13 
    6       1.147874219421e-10       1.751851528579e-15       2.554973051815e-13       1.629128567206e-18       2.054624636873e-09       1.552094824009e-10      -2.128768202671e-13 
    7       1.124855320594e-10       9.472097367748e-16       2.006381293005e-13       2.173088813430e-18       1.653619678879e-09       1.290692498827e-10      -2.050814131261e-14 
    8       1.111301228112e-10       6.105366497414e-16       1.583997196747e-13       2.795298323307e-18       1.363913176684e-09       1.092854945598e-10       7.827861312621e-14 
    9       1.104889254882e-10       4.905213620569e-16       1.300573775777e-13       3.495956186025e-18       1.146643206949e-09       9.385705817735e-11       1.066189981012e-13 
   10       1.103726723631e-10       4.194131796209e-16       1.142797662199e-13       4.275276341998e-18       9.787826143184e-10       8.157814071690e-11       9.026162143927e-14 
   11       1.106630316996e-10       3.536441038032e-16       1.084468798340e-13       5.133484586650e-18       8.374764821638e-10       7.241720701196e-11       5.324783739427e-14 
   12       1.113048599854e-10       3.086254602923e-16       1.095336202642e-13       6.070815515801e-18       7.318617215922e-10       6.416244759811e-11       1.341023157916e-14 
   13       1.121771532161e-10       2.960649355015e-16       1.147733950297e-13       7.087509479667e-18       6.451463893998e-10       5.732662528732e-11      -1.737306601872e-14 
   14       1.132018705267e-10       3.083583060343e-16       1.221449219560e-13       8.183809610561e-18       5.729905300117e-10       5.135183535012e-11      -3.443006477728e-14 
   15       1.144052269188e-10       3.334712915311e-16       1.303708831143e-13       9.359958985664e-18       5.122508299888e-10       4.632032132334e-11      -3.787001578120e-14 
   16       1.157953215283e-10       3.685486360497e-16       1.387206555363e-13       1.061619798094e-17       4.606016943303e-10       4.205701799882e-11      -3.154321115563e-14 
   17       1.172411409180e-10       4.189299502755e-16       1.470671608705e-13       1.195276186547e-17       4.162899488401e-10       3.837823119618e-11      -2.060523935088e-14 
   18       1.187901864321e-10       4.901861100674e-16       1.555830000856e-13       1.336987858628e-17       3.778295895506e-10       3.507581153018e-11      -1.006917078158e-14 
   19       1.204580263723e-10       5.828576350222e-16       1.644664167370e-13       1.486776741444e-17       3.445997399553e-10       3.214562591561e-11      -2.566371532430e-15 
   20       1.221750618662e-10       6.951317622536e-16       1.738829830275e-13       1.644663645034e-17       3.153329312934e-10       2.958590650922e-11       1.959245758827e-16 
   21       1.239551800314e-10       8.262399287153e-16       1.838201704344e-13       1.810668295678e-17       2.895685579228e-10       2.735880007630e-11      -1.261859402801e-15 
   22       1.258060878248e-10       9.754728780933e-16       1.941267739122e-13       1.984809080159e-17       2.666861762746e-10       2.537424146969e-11      -5.263724928722e-15 
   23       1.277176790560e-10       1.143094741148e-15       2.044691842179e-13       2.167103239428e-17       2.463793549648e-10       2.358770841774e-11      -1.012328349034e-14 
   24       1.296558081282e-10       1.329488472735e-15       2.144076058458e-13       2.357566568654e-17       2.281843206308e-10       2.195063996955e-11      -1.402702500004e-14 
   25       1.316319725955e-10       1.534755492803e-15       2.236263999413e-13       2.556213674445e-17       2.118541713014e-10       2.046087326997e-11      -1.612127713083e-14 
   26       1.336575464262e-10       1.759065919633e-15       2.318590819305e-13       2.763057769685e-17       1.970692283909e-10       1.911722772740e-11      -1.599855710329e-14 
   27       1.357401579697e-10       2.004008396888e-15       2.390293638973e-13       2.978111360119e-17       1.837527879988e-10       1.791358968235e-11      -1.411355202111e-14 
   28       1.378679201288e-10       2.271851928844e-15       2.451425931689e-13       3.201385561737e-17       1.717434223747e-10       1.682592473013e-11      -1.140954480047e-14 
   29       1.400149063970e-10       2.564909413869e-15       2.502377059486e-13       3.432890122157e-17       1.607494491684e-10       1.581876381382e-11      -8.954106426363e-15 
   30       1.421882685482e-10       2.884353538481e-15       2.543761786352e-13       3.672634657884e-17       1.507102136232e-10       1.489081754988e-11      -7.173625168755e-15 
   31       1.443962230773e-10       3.230925571432e-15       2.576537841471e-13       3.920627768066e-17       1.415511470113e-10       1.404514040938e-11      -6.328576439086e-15 
   32       1.466378441575e-10       3.605309015751e-15       2.601553655697e-13       4.176876974781e-17       1.331272855695e-10       1.327741265194e-11      -6.588679530765e-15 
   33       1.489153647428e-10       4.008431073097e-15       2.617763776097e-13       4.441389870694e-17       1.253927265802e-10       1.257899748176e-11      -7.609644188142e-15 
   34       1.512240472544e-10       4.441261185374e-15       2.623334772237e-13       4.714173319566e-17       1.182789590909e-10       1.193351767285e-11      -8.785998935168e-15 
   35       1.535533503275e-10       4.904719134578e-15       2.616383918746e-13       4.995233446411e-17       1.116800853897e-10       1.132158654758e-11      -9.505658414454e-15 
   36       1.559064737392e-10       5.399642077614e-15       2.596024032306e-13       5.284576753873e-17       1.055789727549e-10       1.074286594381e-11      -9.691424380383e-15 
   37       1.582860090757e-10       5.926798484832e-15       2.561665266778e-13       5.582209368283e-17       9.995649691276e-11       1.020087360504e-11      -9.442800131057e-15 
   38       1.606878124175e-10       6.486890700722e-15       2.512739732735e-13       5.888136739425e-17       9.475340277306e-11       9.696826758068e-12      -8.896049517426e-15 
   39       1.631048194721e-10       7.080570235874e-15       2.448814402495e-13       6.202363829440e-17       8.989167460245e-11       9.229949102969e-12      -8.208343073960e-15 
   40       1.655418671740e-10       7.708501675261e-15       2.369973538194e-13       6.524895765710e-17       8.535641768824e-11       8.799115822911e-12      -7.497046250635e-15 
   41       1.680046793585e-10       8.371312467450e-15       2.276568457531e-13       6.855737404633e-17       8.113569893309e-11       8.401357805834e-12      -6.884304403916e-15 
   42       1.704953509344e-10       9.069571418137e-15       2.169126432791e-13       7.194893169342e-17       7.719611497896e-11       8.031155867226e-12      -6.515142539039e-15 
   43       1.730136299815e-10       9.803820755935e-15       2.048117731076e-13       7.542366957594e-17       7.349514493696e-11       7.682156980787e-12      -6.513614423250e-15 
   44       1.755621902013e-10       1.057469215330e-14       1.913147082254e-13       7.898161804563e-17       7.002708524312e-11       7.353448898262e-12      -6.831788510746e-15 
   45       1.781423275861e-10       1.138282127757e-14       1.763526366478e-13       8.262280133797e-17       6.678839639133e-11       7.044895854105e-12      -7.355896866276e-15 
   46       1.807521359449e-10       1.222881449598e-14       1.598489749226e-13       8.634723855928e-17       6.376391128987e-11       6.755305996739e-12      -7.945913017232e-15 
   47       1.833862134866e-10       1.311324779336e-14       1.417187975112e-13       9.015494373328e-17       6.092592873850e-11       6.482347827427e-12      -8.434012379204e-15 
   48       1.860382031788e-10       1.403661492614e-14       1.218824287361e-13       9.404592298946e-17       5.824274001751e-11       6.223297257103e-12      -8.670789392898e-15 
   49       1.887099452478e-10       1.499915712761e-14       1.003120807188e-13       9.802016508209e-17       5.570916607167e-11       5.977722771758e-12      -8.682906987563e-15 
   50       1.914044005340e-10       1.600098353918e-14       7.699738171794e-14       1.020776482787e-16       5.332307087631e-11       5.745413614897e-12      -8.557241409202e-15 
   51       1.941228967988e-10       1.704211420106e-14       5.193250960777e-14       1.062183428884e-16       5.107626511212e-11       5.525575086154e-12      -8.397880399270e-15 
   52       1.968649798892e-10       1.812247638001e-14       2.511634383917e-14       1.104422111625e-16       4.895408092334e-11       5.316787358630e-12      -8.327020187144e-15 
   53       1.996295698371e-10       1.924197414337e-14      -3.452228421042e-15       1.147492065152e-16       4.693997702852e-11       5.117491429317e-12      -8.453175710827e-15 
   54       2.024191207753e-10       2.040072653798e-14      -3.379016068300e-14       1.191392711802e-16       4.503172313288e-11       4.927688470225e-12      -8.764149589485e-15 
   55       2.052362713143e-10       2.159888425704e-14      -6.591820919596e-14       1.236123377786e-16       4.322863608635e-11       4.747605677760e-12      -9.208104216426e-15 
   56       2.080825412342e-10       2.283656116714e-14      -9.985649390865e-14       1.281683298211e-16       4.152670430906e-11       4.577188737518e-12      -9.723376608335e-15 
   57       2.109582373624e-10       2.411383370711e-14      -1.356245496875e-13       1.328071615806e-16       3.991837346587e-11       4.416082743636e-12      -1.023800488320e-14 
   58       2.138623594522e-10       2.543074028688e-14      -1.732413775351e-13       1.375287379643e-16       3.839233214084e-11       4.263613118147e-12      -1.066925473823e-14 
   59       2.167934379224e-10       2.678719830334e-14      -2.127193617999e-13       1.423329603840e-16       3.693662484687e-11       4.118974462233e-12      -1.094382263191e-14 
   60       2.197524880282e-10       2.818273404906e-14      -2.540442559099e-13       1.472197462496e-16       3.554932203371e-11       3.981891659600e-12      -1.106499961608e-14 
   61       2.227405766088e-10       2.961668890641e-14      -2.971906309916e-13       1.521890137848e-16       3.422995358738e-11       3.852078851511e-12      -1.106029578199e-14 
   62       2.257578892904e-10       3.108829289118e-14      -3.421274476954e-13       1.572406765013e-16       3.297629990303e-11       3.729033217430e-12      -1.096235770453e-14 
   63       2.288036679525e-10       3.259666125879e-14      -3.888178994818e-13       1.623746432743e-16       3.178429035047e-11       3.612022942910e-12      -1.080919582532e-14 
   64       2.318761481947e-10       3.414079111048e-14      -4.372192559069e-13       1.675908184181e-16       3.064790173967e-11       3.500075187489e-12      -1.064441183596e-14 
   65       2.349735262588e-10       3.571966817286e-14      -4.872920340752e-13       1.728891150419e-16       2.956081993252e-11       3.392233477500e-12      -1.050731637277e-14 
   66       2.380972382658e-10       3.733262104350e-14      -5.390301225892e-13       1.782694982339e-16       2.852206175218e-11       3.288420268695e-12      -1.040033879647e-14 
   67       2.412492657327e-10       3.897903612340e-14      -5.924367760401e-13       1.837319511851e-16       2.753136571257e-11       3.188736090716e-12      -1.031510144275e-14 
   68       2.444311342904e-10       4.065825375748e-14      -6.475159520491e-13       1.892764631548e-16       2.658748269179e-11       3.093201829599e-12      -1.024186590992e-14 
   69       2.476438799470e-10       4.236956792260e-14      -7.042724154812e-13       1.949030299177e-16       2.568812371647e-11       3.001754232032e-12      -1.016947765367e-14 
   70       2.508880153495e-10       4.411222591553e-14      -7.627118426588e-13       2.006116542111e-16       2.482990774597e-11       2.914241409610e-12      -1.008531058164e-14 
   71       2.541634960474e-10       4.588542804096e-14      -8.228409255750e-13       2.064023461820e-16       2.400830945678e-11       2.830418343082e-12      -9.975211648168e-15 
   72       2.574701039301e-10       4.768828856471e-14      -8.846596135485e-13       2.122751351949e-16       2.321882309603e-11       2.750017102057e-12      -9.827391287363e-15 
   73       2.608087577225e-10       4.951971058978e-14      -9.481358825257e-13       2.182301068868e-16       2.246082871132e-11       2.672983099025e-12      -9.645082376217e-15 
   74       2.641803942414e-10       5.137848648707e-14      -1.013226288529e-12       2.242673740660e-16       2.173437713685e-11       2.599276270906e-12      -9.436222346014e-15 
   75       2.675855497076e-10       5.326333332613e-14      -1.079883327086e-12       2.303870666760e-16       2.103901564370e-11       2.528797639252e-12      -9.209756735028e-15 
   76       2.710243355330e-10       5.517289167872e-14      -1.148055357931e-12       2.365893325016e-16       2.037376348832e-11       2.461386520338e-12      -8.975673870829e-15 
   77       2.744964141075e-10       5.710572442249e-14      -1.217686529709e-12       2.428743378757e-16       1.973708746093e-11       2.396817735239e-12      -8.745039552579e-15 
   78       2.780009745863e-10       5.906031554462e-14      -1.288716704680e-12       2.492422683855e-16       1.912687743395e-11       2.334798819926e-12      -8.530031733337e-15 
   79       2.815367086772e-10       6.103506894541e-14      -1.361081383419e-12       2.556933295792e-16       1.854042191047e-11       2.274967235343e-12      -8.343975202356e-15 
   80       2.851023470919e-10       6.302836238539e-14      -1.434717434894e-12       2.622277425345e-16       1.797508141989e-11       2.216980196754e-12      -8.198204862061e-15 
   81       2.886984294592e-10       6.503872274785e-14      -1.509581598356e-12       2.688457281240e-16       1.743049717754e-11       2.160808265454e-12      -8.091951913296e-15 
   82       2.923257990236e-10       6.706467917196e-14      -1.585635072183e-12       2.755475212944e-16       1.690672315332e-11       2.106487889645e-12      -8.020756333368e-15 
   83       2.959850556651e-10       6.910471044026e-14      -1.662838025619e-12       2.823333765631e-16       1.640355094218e-11       2.054032255646e-12      -7.979458600169e-15 
   84       2.996765420692e-10       7.115724480352e-14      -1.741149630975e-12       2.892035686295e-16       1.592049823569e-11       2.003430213142e-12      -7.962175644749e-15 
   85       3.034003298962e-10       7.322065980549e-14      -1.820528095847e-12       2.961583929868e-16       1.545679729351e-11       1.954645200447e-12      -7.962276803888e-15 
   86       3.071562059515e-10       7.529328210777e-14      -1.900930695321e-12       3.031981665326e-16       1.501138341495e-11       1.907614169759e-12      -7.972359772670e-15 
   87       3.109436583553e-10       7.737338731456e-14      -1.982313804185e-12       3.103232281808e-16       1.458288341051e-11       1.862246512417e-12      -7.984226557053e-15 
   88       3.147618627121e-10       7.945919979751e-14      -2.064632929138e-12       3.175339394728e-16       1.416960407340e-11       1.818422984157e-12      -7.988859426445e-15 
   89       3.186100100456e-10       8.154891523754e-14      -2.147840999218e-12       3.248306728969e-16       1.376993538752e-11       1.776025987810e-12      -7.978341196147e-15 
   90       3.224883797027e-10       8.364077268463e-14      -2.231882859531e-12       3.322137734159e-16       1.338365776771e-11       1.735038208161e-12      -7.952013711981e-15 
   91       3.263974100553e-10       8.573299353167e-14      -2.316699969095e-12       3.396835920030e-16       1.301081959678e-11       1.695457541558e-12      -7.911245620383e-15 
   92       3.303373631295e-10       8.782375996658e-14      -2.402232071757e-12       3.472404978170e-16       1.265133550307e-11       1.657266519334e-12      -7.857579048827e-15 
   93       3.343083158959e-10       8.991121513741e-14      -2.488417202311e-12       3.548848786294e-16       1.230498104523e-11       1.620431702839e-12      -7.792734686934e-15 
   94       3.383101515593e-10       9.199346331753e-14      -2.575191692614e-12       3.626171412521e-16       1.197138739702e-11       1.584903078474e-12      -7.718616867586e-15 
   95       3.423425508486e-10       9.406857007073e-14      -2.662490177702e-12       3.704377119641e-16       1.165003603216e-11       1.550613452721e-12      -7.637318648032e-15 
   96       3.464049833068e-10       9.613456241637e-14      -2.750245601903e-12       3.783470369389e-16       1.134025340912e-11       1.517477847174e-12      -7.551126891003e-15 
   97       3.504966985809e-10       9.818942899454e-14      -2.838389224958e-12       3.863455826716e-16       1.104120565593e-11       1.485392893569e-12      -7.462527345818e-15 
   98       3.546167177115e-10       1.002311202312e-13      -2.926850628132e-12       3.944338364059e-16       1.075189325498e-11       1.454236228818e-12      -7.374209729494e-15 
   99       3.587640779033e-10       1.022575967145e-13      -3.015559004326e-12       4.026123096791e-16       1.047138010744e-11       1.423894975117e-12      -7.288544178324e-15 
  100       3.629386252220e-10       1.042669817853e-13      -3.104447223696e-12       4.108815486063e-16       1.019952923636e-11       1.394357090826e-12      -7.205915005286e-15 
  101       3.671403185177e-10       1.062574309675e-13      -3.193448357934e-12       4.192421258526e-16       9.936361900330e-12       1.365631894998e-12      -7.126159274957e-15 
  102       3.713689803947e-10       1.082270864242e-13      -3.282494469053e-12       4.276946381053e-16       9.681830067470e-12       1.337721887408e-12      -7.049073068142e-15 
  103       3.756242915743e-10       1.101740777081e-13      -3.371516631066e-12       4.362397065388e-16       9.435813941244e-12       1.310622496128e-12      -6.974410155349e-15 
  104       3.799057852567e-10       1.120965225104e-13      -3.460444951668e-12       4.448779772788e-16       9.198119486215e-12       1.284321825107e-12      -6.901880670276e-15 
  105       3.842128414840e-10       1.139925274107e-13      -3.549208593912e-12       4.536101218684e-16       8.968475953820e-12       1.258800401747e-12      -6.831149783283e-15 
  106       3.885446815019e-10       1.158601886262e-13      -3.637735797891e-12       4.624368377322e-16       8.746533408148e-12       1.234030924484e-12      -6.761836374877e-15 
  107       3.929003621226e-10       1.176975927615e-13      -3.725953902415e-12       4.713588486414e-16       8.531860251714e-12       1.209978010361e-12      -6.693511709188e-15 
