# dimensionless total [l(l+1)/2pi] C_l's
# for l=2 to 3000, i.e. number of multipoles equal to 2999
#
# -> if you prefer output in CAMB/HealPix/LensPix units/order, set 'format' to 'camb' in input file
# -> if you don't want to see such a header, set 'headers' to 'no' in input file
# -> for CMB lensing (phi), these are C_l^phi-phi for the lensing potential.
#    Remember the conversion factors:
#    C_l^dd (deflection) = l(l+1) C_l^phi-phi
#    C_l^gg (shear/convergence) = 1/4 (l(l+1))^2 C_l^phi-phi
#
# 1:l     2:TT                     3:EE                     4:TE                     5:BB                     6:phiphi                 7:TPhi                   8:Ephi               
    2       1.023852156610e-10       2.858206105704e-15       3.819386472864e-13       0.000000000000e+00       1.157678585609e-08      -7.017750206019e-11      -1.628427844162e-12 
    3       1.009177789364e-10       4.416963679887e-15       4.145733830937e-13       0.000000000000e+00       7.124462072651e-09      -2.290527515902e-11      -1.344237366926e-12 
    4       9.954452657403e-11       4.796888526674e-15       3.948800288633e-13       0.000000000000e+00       4.931346946171e-09      -5.838265610176e-12      -1.021752076583e-12 
    5       9.858988809408e-11       4.121187823651e-15       3.504080919966e-13       0.000000000000e+00       3.668956612208e-09       1.220543042402e-12      -7.197823679118e-13 
    6       9.806706720813e-11       2.948363144456e-15       2.970878910982e-13       0.000000000000e+00       2.860543407199e-09       4.301265356772e-12      -4.600559008282e-13 
    7       9.798746476675e-11       1.831081508953e-15       2.452329518410e-13       0.000000000000e+00       2.304720791615e-09       5.581027953318e-12      -2.533639833519e-13 
    8       9.825788924492e-11       1.062407060599e-15       2.003697864266e-13       0.000000000000e+00       1.903016470765e-09       6.070753477899e-12      -1.018897703996e-13 
    9       9.878239939800e-11       6.672245021367e-16       1.651445543445e-13       0.000000000000e+00       1.601762510087e-09       6.212278135063e-12      -2.220396610583e-15 
   10       9.958024878007e-11       5.200148344501e-16       1.401922832824e-13       0.000000000000e+00       1.369240281416e-09       6.155384578827e-12       5.279482714055e-14 
   11       1.005335944782e-10       4.753633295789e-16       1.248626999113e-13       0.000000000000e+00       1.156312368712e-09       6.842244821059e-12       7.233620776585e-14 
   12       1.016163033507e-10       4.439226271149e-16       1.178148088739e-13       0.000000000000e+00       1.011462675695e-09       6.368847440583e-12       6.739215550897e-14 
   13       1.028308288946e-10       4.030956466018e-16       1.173056914765e-13       0.000000000000e+00       8.926018907039e-10       6.118492157587e-12       4.794071288204e-14 
   14       1.041192638439e-10       3.682750906918e-16       1.215094398477e-13       0.000000000000e+00       7.937375402955e-10       5.792970307083e-12       2.229373065783e-14 
   15       1.054734745735e-10       3.587349480151e-16       1.287629605494e-13       0.000000000000e+00       7.105359694628e-10       5.500544340687e-12      -2.595839828151e-15 
   16       1.068935843430e-10       3.797035227869e-16       1.376853107956e-13       0.000000000000e+00       6.397950898057e-10       5.221234916919e-12      -2.225822427012e-14 
   17       1.083337038906e-10       4.233129375155e-16       1.473195473258e-13       0.000000000000e+00       5.791035719299e-10       4.945745299787e-12      -3.454375982340e-14 
   18       1.098265322490e-10       4.780907954555e-16       1.570669370848e-13       0.000000000000e+00       5.264146105315e-10       4.713515716873e-12      -3.923899673865e-14 
   19       1.113805781511e-10       5.415823034558e-16       1.666518702830e-13       0.000000000000e+00       4.808930237224e-10       4.517384421748e-12      -3.745021263876e-14 
   20       1.129405606492e-10       6.148379818747e-16       1.758838797781e-13       0.000000000000e+00       4.407842175888e-10       4.327030607641e-12      -3.132649333278e-14 
   21       1.145198509819e-10       7.034183325511e-16       1.848779940149e-13       0.000000000000e+00       4.054603765395e-10       4.127778837072e-12      -2.294007587314e-14 
   22       1.161256016260e-10       8.140598913814e-16       1.938665297118e-13       0.000000000000e+00       3.740776096881e-10       3.915768130330e-12      -1.460675049089e-14 
   23       1.177538642394e-10       9.476197473034e-16       2.029689935713e-13       0.000000000000e+00       3.462071218061e-10       3.735324387321e-12      -7.694090625578e-15 
   24       1.193811677228e-10       1.102514132055e-15       2.122578130661e-13       0.000000000000e+00       3.212069887578e-10       3.630568746270e-12      -3.237962001202e-15 
   25       1.210213844935e-10       1.277511459943e-15       2.217315337631e-13       0.000000000000e+00       2.987856330895e-10       3.537866158572e-12      -1.583591476209e-15 
   26       1.226849170690e-10       1.471475287301e-15       2.313223915557e-13       0.000000000000e+00       2.785394640011e-10       3.372492468447e-12      -2.620170072799e-15 
   27       1.243677435727e-10       1.685318041642e-15       2.408294874027e-13       0.000000000000e+00       2.602284310818e-10       3.185434443215e-12      -5.452145598286e-15 
   28       1.260536816786e-10       1.920418394368e-15       2.499879628813e-13       0.000000000000e+00       2.435397055318e-10       3.061968787455e-12      -8.852650202603e-15 
   29       1.277506688307e-10       2.177180033465e-15       2.586028785360e-13       0.000000000000e+00       2.283901230489e-10       2.994821204767e-12      -1.216565159902e-14 
   30       1.294638891188e-10       2.455519508202e-15       2.664737012140e-13       0.000000000000e+00       2.146186476616e-10       2.939288325863e-12      -1.480861251865e-14 
   31       1.311890372487e-10       2.755367033639e-15       2.733971838091e-13       0.000000000000e+00       2.019461719790e-10       2.850334362420e-12      -1.621168677011e-14 
   32       1.329300596159e-10       3.077742069182e-15       2.792911557998e-13       0.000000000000e+00       1.903090897034e-10       2.733940218625e-12      -1.634155076455e-14 
   33       1.346855900534e-10       3.424087828078e-15       2.841175648485e-13       0.000000000000e+00       1.796269781191e-10       2.615149935423e-12      -1.538030759524e-14 
   34       1.364479151176e-10       3.795931664276e-15       2.878583585962e-13       0.000000000000e+00       1.697523557207e-10       2.518350479599e-12      -1.360289095930e-14 
   35       1.382199361479e-10       4.194629868186e-15       2.905388146119e-13       0.000000000000e+00       1.606360274650e-10       2.443292702578e-12      -1.139513035589e-14 
   36       1.400025256415e-10       4.621543932455e-15       2.922151053314e-13       0.000000000000e+00       1.522060609643e-10       2.380569444827e-12      -9.255154779443e-15 
   37       1.417921877494e-10       5.077961137061e-15       2.929480065812e-13       0.000000000000e+00       1.443540952491e-10       2.320134620059e-12      -7.680338012129e-15 
   38       1.435911878150e-10       5.564576767134e-15       2.927276859321e-13       0.000000000000e+00       1.370608998140e-10       2.259681061511e-12      -6.768743347537e-15 
   39       1.453996536631e-10       6.081833858132e-15       2.915249963039e-13       0.000000000000e+00       1.303043513168e-10       2.198859568079e-12      -6.488345437236e-15 
   40       1.472121350483e-10       6.630050885302e-15       2.893114864142e-13       0.000000000000e+00       1.240212156513e-10       2.136999243445e-12      -6.781119263148e-15 
   41       1.490215264242e-10       7.209524757109e-15       2.860497447750e-13       0.000000000000e+00       1.181294520321e-10       2.073581281796e-12      -7.546571225668e-15 
   42       1.508337395046e-10       7.820900620841e-15       2.816609028716e-13       0.000000000000e+00       1.126125028930e-10       2.009914126868e-12      -8.590848241999e-15 
   43       1.526568489871e-10       8.464908086531e-15       2.760463769595e-13       0.000000000000e+00       1.074563900653e-10       1.947955807151e-12      -9.657586525782e-15 
   44       1.544967571002e-10       9.142259249519e-15       2.690957588696e-13       0.000000000000e+00       1.026244000217e-10       1.889864800689e-12      -1.043788639041e-14 
   45       1.563570857192e-10       9.853607987362e-15       2.607071126522e-13       0.000000000000e+00       9.807039524716e-11       1.837505551101e-12      -1.065332359306e-14 
   46       1.582394295955e-10       1.059941538837e-14       2.508568855986e-13       0.000000000000e+00       9.378777214244e-11       1.790774604564e-12      -1.034173343974e-14 
   47       1.601427346480e-10       1.138004261269e-14       2.395496092000e-13       0.000000000000e+00       8.977205138668e-11       1.748784249659e-12      -9.651699279445e-15 
   48       1.620629055421e-10       1.219578415197e-14       2.267991025922e-13       0.000000000000e+00       8.600610194719e-11       1.710297314423e-12      -8.765790889208e-15 
   49       1.639925533896e-10       1.304686466595e-14       2.126289275171e-13       0.000000000000e+00       8.245919676233e-11       1.673704337230e-12      -7.902483348079e-15 
   50       1.659238916798e-10       1.393347178734e-14       1.970639301816e-13       0.000000000000e+00       7.909638601213e-11       1.637454390357e-12      -7.266976485850e-15 
   51       1.678589361086e-10       1.485587237322e-14       1.801011047168e-13       0.000000000000e+00       7.591180719276e-11       1.601538377751e-12      -6.883463665249e-15 
   52       1.698016372616e-10       1.581432234062e-14       1.617316073642e-13       0.000000000000e+00       7.290278437521e-11       1.566368900155e-12      -6.720651148001e-15 
   53       1.717548726846e-10       1.680903202018e-14       1.419490130252e-13       0.000000000000e+00       7.005985296416e-11       1.532360346473e-12      -6.738403995116e-15 
   54       1.737203427355e-10       1.784016468542e-14       1.207493507835e-13       0.000000000000e+00       6.736630091438e-11       1.499927413030e-12      -6.887260262017e-15 
   55       1.756991306432e-10       1.890782641185e-14       9.812598255013e-14       0.000000000000e+00       6.480334953480e-11       1.469385055156e-12      -7.115934517102e-15 
   56       1.776937842034e-10       2.001203607389e-14       7.405266777403e-14       0.000000000000e+00       6.236825407492e-11       1.440622629247e-12      -7.397124173964e-15 
   57       1.797065687968e-10       2.115274531835e-14       4.849635386180e-14       0.000000000000e+00       6.005989611712e-11       1.413346206952e-12      -7.707263080726e-15 
   58       1.817387719245e-10       2.232984481218e-14       2.142180265963e-14       0.000000000000e+00       5.787330409528e-11       1.387164845228e-12      -8.018923142175e-15 
   59       1.837906249374e-10       2.354316243392e-14      -7.208574941816e-15       0.000000000000e+00       5.579941423532e-11       1.361585265302e-12      -8.300639787236e-15 
   60       1.858612247668e-10       2.479246146507e-14      -3.743488440258e-14       0.000000000000e+00       5.382483149584e-11       1.336006531615e-12      -8.516737436442e-15 
   61       1.879493811977e-10       2.607747204562e-14      -6.929167757318e-14       0.000000000000e+00       5.193560133466e-11       1.309890002382e-12      -8.637012665527e-15 
   62       1.900565579950e-10       2.739799788268e-14      -1.027812519304e-13       0.000000000000e+00       5.013005514726e-11       1.283325796259e-12      -8.668718386458e-15 
   63       1.921844560576e-10       2.875383039337e-14      -1.378946242897e-13       0.000000000000e+00       4.840843703152e-11       1.256584611554e-12      -8.631481820435e-15 
   64       1.943340981945e-10       3.014471681604e-14      -1.746191432960e-13       0.000000000000e+00       4.676903780479e-11       1.229953909973e-12      -8.548215813934e-15 
   65       1.965057802217e-10       3.157035945716e-14      -2.129383935171e-13       0.000000000000e+00       4.520808320499e-11       1.203738156800e-12      -8.445257083421e-15 
   66       1.986990220587e-10       3.303041493815e-14      -2.528320995372e-13       0.000000000000e+00       4.371962209159e-11       1.178259061085e-12      -8.352504460071e-15 
   67       2.009125188256e-10       3.452449344221e-14      -2.942760300505e-13       0.000000000000e+00       4.229541464676e-11       1.153855815833e-12      -8.303557134480e-15 
   68       2.031449084691e-10       3.605211987818e-14      -3.372452672220e-13       0.000000000000e+00       4.092716580987e-11       1.130817182296e-12      -8.327339473462e-15 
   69       2.053973645730e-10       3.761260991742e-14      -3.817249984100e-13       0.000000000000e+00       3.961400099867e-11       1.109161225814e-12      -8.420695821491e-15 
   70       2.076714434812e-10       3.920516737034e-14      -4.277017488870e-13       0.000000000000e+00       3.835631128545e-11       1.088811175076e-12      -8.570465519410e-15 
   71       2.099682867355e-10       4.082891835080e-14      -4.751602003881e-13       0.000000000000e+00       3.715349130091e-11       1.069658153065e-12      -8.761426939191e-15 
   72       2.122885930552e-10       4.248290954899e-14      -5.240831812721e-13       0.000000000000e+00       3.600388741564e-11       1.051559674131e-12      -8.976217993933e-15 
   73       2.146325903169e-10       4.416610650429e-14      -5.744516566842e-13       0.000000000000e+00       3.490474592155e-11       1.034338141056e-12      -9.195256647836e-15 
   74       2.170000075347e-10       4.587739187814e-14      -6.262447187168e-13       0.000000000000e+00       3.385216121334e-11       1.017779342125e-12      -9.396661426197e-15 
   75       2.193900468396e-10       4.761556372688e-14      -6.794395765719e-13       0.000000000000e+00       3.284102396998e-11       1.001630948197e-12      -9.556171925394e-15 
   76       2.218019132264e-10       4.937940244973e-14      -7.340130220677e-13       0.000000000000e+00       3.186630885139e-11       9.856619788097e-13      -9.652801900372e-15 
   77       2.242365772568e-10       5.116788954492e-14      -7.899461564339e-13       0.000000000000e+00       3.092732322874e-11       9.698570419457e-13      -9.687164365553e-15 
   78       2.266952843799e-10       5.298002579228e-14      -8.472205116010e-13       0.000000000000e+00       3.002414268642e-11       9.542549488682e-13      -9.666359272575e-15 
   79       2.291790093675e-10       5.481476580326e-14      -9.058166714072e-13       0.000000000000e+00       2.915631628353e-11       9.388906387573e-13      -9.598574830968e-15 
   80       2.316884397314e-10       5.667101770209e-14      -9.657142920129e-13       0.000000000000e+00       2.832284220315e-11       9.237949259989e-13      -9.493125569290e-15 
   81       2.342239591408e-10       5.854764280680e-14      -1.026892122316e-12       0.000000000000e+00       2.752214340170e-11       9.089942474736e-13      -9.360490396253e-15 
   82       2.367856308393e-10       6.044345531040e-14      -1.089328024368e-12       0.000000000000e+00       2.675204325821e-11       8.945104098454e-13      -9.212350661860e-15 
   83       2.393731810625e-10       6.235722196192e-14      -1.152998993785e-12       0.000000000000e+00       2.600974122363e-11       8.803603368502e-13      -9.061628218534e-15 
   84       2.419862885868e-10       6.428766205940e-14      -1.217878782020e-12       0.000000000000e+00       2.529250600649e-11       8.665562847719e-13      -8.919876739575e-15 
   85       2.446255448509e-10       6.623344812594e-14      -1.283930265538e-12       0.000000000000e+00       2.459994050486e-11       8.531070834691e-13      -8.788875410809e-15 
   86       2.472916233387e-10       6.819320476155e-14      -1.351111843158e-12       0.000000000000e+00       2.393204945210e-11       8.400166387074e-13      -8.667704954802e-15 
   87       2.499849763305e-10       7.016550803222e-14      -1.419379702129e-12       0.000000000000e+00       2.328854315471e-11       8.272832410309e-13      -8.555264140384e-15 
   88       2.527058234657e-10       7.214888515629e-14      -1.488687798239e-12       0.000000000000e+00       2.266882520106e-11       8.148993209197e-13      -8.450263360710e-15 
   89       2.554541403049e-10       7.414181419072e-14      -1.558987835926e-12       0.000000000000e+00       2.207198017011e-11       8.028512039474e-13      -8.351218211319e-15 
   90       2.582296468925e-10       7.614272371751e-14      -1.630229248385e-12       0.000000000000e+00       2.149676134020e-11       7.911188659387e-13      -8.256443068202e-15 
   91       2.610317963187e-10       7.814999252999e-14      -1.702359177683e-12       0.000000000000e+00       2.094157839776e-11       7.796756881266e-13      -8.164044665855e-15 
   92       2.638597632827e-10       8.016194931919e-14      -1.775322454862e-12       0.000000000000e+00       2.040448514603e-11       7.684882123097e-13      -8.071915675347e-15 
   93       2.667127671880e-10       8.217691021600e-14      -1.849064203167e-12       0.000000000000e+00       1.988364937368e-11       7.575251499261e-13      -7.978222876437e-15 
   94       2.695911218607e-10       8.419329855794e-14      -1.923538138766e-12       0.000000000000e+00       1.937886999526e-11       7.467864910307e-13      -7.882969609258e-15 
   95       2.724953232972e-10       8.620954263921e-14      -1.998699487493e-12       0.000000000000e+00       1.889026642522e-11       7.362783409913e-13      -7.786657535393e-15 
   96       2.754257224430e-10       8.822403966307e-14      -2.074502488872e-12       0.000000000000e+00       1.841781115240e-11       7.260039404239e-13      -7.689813344488e-15 
   97       2.783825183481e-10       9.023515594782e-14      -2.150900412234e-12       0.000000000000e+00       1.796132406735e-11       7.159635473771e-13      -7.592989121529e-15 
   98       2.813657513208e-10       9.224122713276e-14      -2.227845572839e-12       0.000000000000e+00       1.752046678959e-11       7.061543195165e-13      -7.496762714110e-15 
   99       2.843752960825e-10       9.424055838421e-14      -2.305289347986e-12       0.000000000000e+00       1.709473699487e-11       6.965701963091e-13      -7.401738099712e-15 
  100       2.874108549221e-10       9.623142460144e-14      -2.383182193134e-12       0.000000000000e+00       1.668346274245e-11       6.872017812078e-13      -7.308545752971e-15 
  101       2.904719508507e-10       9.821207062273e-14      -2.461473658018e-12       0.000000000000e+00       1.628579680235e-11       6.780362238355e-13      -7.217843012955e-15 
  102       2.935579207555e-10       1.001807114313e-13      -2.540112402765e-12       0.000000000000e+00       1.590071098266e-11       6.690571021703e-13      -7.130314450433e-15 
  103       2.966679085551e-10       1.021355323611e-13      -2.619046214013e-12       0.000000000000e+00       1.552699045677e-11       6.602443047290e-13      -7.046672235151e-15 
  104       2.998010978528e-10       1.040747279634e-13      -2.698221912198e-12       0.000000000000e+00       1.516351391978e-11       6.515792759556e-13      -6.967487677207e-15 
  105       3.029574604367e-10       1.059966241390e-13      -2.777585024441e-12       0.000000000000e+00       1.481014937692e-11       6.430618131242e-13      -6.892659143428e-15 
  106       3.061370965997e-10       1.078995729655e-13      -2.857080097315e-12       0.000000000000e+00       1.446696935085e-11       6.346953293738e-13      -6.821872614344e-15 
  107       3.093400005068e-10       1.097819161326e-13      -2.936650816469e-12       0.000000000000e+00       1.413397335711e-11       6.264816349555e-13      -6.754762621590e-15 
